t [s],x [m],y [m],z [m],roll [deg],pitch [deg],yaw [deg]
0.0,-3.880143955891802e-07,0.0,500.00013733741224,0.0,0.0004369658474027072,0.0
0.1,-1.5491519200205414e-06,0.0,500.0005490236037,0.0,0.0017459934143391855,0.0
0.2,-3.474783023137049e-06,0.0,500.0012340835374,0.0,0.003921490062522537,0.0
0.30000000000000004,-6.1508166837665116e-06,0.0,500.00219090236357,0.0,0.006954191702141631,0.0
0.4,-9.558129431968387e-06,0.0,500.0034172405245,0.0,0.010831247075604289,0.0
0.5,-1.3673149671392961e-05,0.0,500.0049102544804,0.0,0.015536333441257159,0.0
0.6,-1.8468581766963427e-05,0.0,500.0066665226544,0.0,0.02104980143710568,0.0
0.7,-2.391425098091698e-05,0.0,500.0086820761011,0.0,0.0273488463985286,0.0
0.7999999999999999,-2.9978047667999417e-05,0.0,500.0109524333285,0.0,0.0344077029851418,0.0
0.8999999999999999,-3.662694725248761e-05,0.0,500.01347263864477,0.0,0.04219785965049307,0.0
0.9999999999999999,-4.3828081439873814e-05,0.0,500.0162373033616,0.0,0.05068828926984954,0.0
1.0999999999999999,-5.154983585913702e-05,0.0,500.0192406491659,0.0,0.059845692127157867,0.0
1.2,-5.976294984571281e-05,0.0,500.02247655297055,0.0,0.06963474744924546,0.0
1.3,-6.844159528732372e-05,0.0,500.0259385925683,0.0,0.08001836975665014,0.0
1.4000000000000001,-7.756441326672007e-05,0.0,500.0296200924461,0.0,0.09095796646615541,0.0
1.5000000000000002,-8.711548953176644e-05,0.0,500.0335141691587,0.0,0.102413693417856,0.0
1.6000000000000003,-9.708525247926484e-05,0.0,500.03761377571607,0.0,0.11434470529553077,0.0
1.7000000000000004,-0.00010747128022732786,0.0,500.04191174450085,0.0,0.126709398248674,0.0
1.8000000000000005,-0.00011827900634932715,0.0,500.046400828299,0.0,0.13946564239315695,0.0
1.9000000000000006,-0.0001295223168376826,0.0,500.0510737390984,0.0,0.15257100225125222,0.0
2.0000000000000004,-0.00014122403375931234,0.0,500.0559231843786,0.0,0.1659829435779202,0.0
2.1000000000000005,-0.00015341628377451742,0.0,500.0609419006854,0.0,0.17965902539767434,0.0
2.2000000000000006,-0.00016614075215369973,0.0,500.0661226843475,0.0,0.19355707643565734,0.0
2.3000000000000007,-0.00017944882509624395,0.0,500.07145841925546,0.0,0.2076353554603618,0.0
2.400000000000001,-0.00019340162500531058,0.0,500.076942101676,0.0,0.22185269535822685,0.0
2.500000000000001,-0.0002080699448892938,0.0,500.08256686212417,0.0,0.23616863102849966,0.0
2.600000000000001,-0.00022353408924720002,0.0,500.0883259843568,0.0,0.25054351141829484,0.0
2.700000000000001,-0.0002398836296644601,0.0,500.09421292158817,0.0,0.26493859621223137,0.0
2.800000000000001,-0.00025721708391977165,0.0,500.1002213100533,0.0,0.27931613784909665,0.0
2.9000000000000012,-0.0002756415277108838,0.0,500.10634498006965,0.0,0.2936394496614145,0.0
3.0000000000000013,-0.0002952721481802319,0.0,500.1125779647626,0.0,0.30787296102501877,0.0
3.1000000000000014,-0.0003162317482944649,0.0,500.1189145066304,0.0,0.3219822604677505,0.0
3.2000000000000015,-0.0003386502108399731,0.0,500.12534906213256,0.0,0.33593412772246967,0.0
3.3000000000000016,-0.00036266393037324865,0.0,500.13187630448385,0.0,0.3496965557231516,0.0
3.4000000000000017,-0.0003884152209419648,0.0,500.13849112483973,0.0,0.36323876353733336,0.0
3.5000000000000018,-0.0004160517067989061,0.0,500.145188632049,0.0,0.376531201206905,0.0
3.600000000000002,-0.00044572570269193107,0.0,500.15196415114843,0.0,0.3895455474353231,0.0
3.700000000000002,-0.0004775935896511522,0.0,500.15881322076086,0.0,0.40225470101561084,0.0
3.800000000000002,-0.0005118151915281169,0.0,500.1657315895525,0.0,0.41463276684257033,0.0
3.900000000000002,-0.0005485531568862132,0.0,500.1727152118923,0.0,0.426655037296733,0.0
4.000000000000002,-0.0005879723502088809,0.0,500.1797602428458,0.0,0.43829796972864804,0.0
4.100000000000001,-0.0006302392557916595,0.0,500.18686303262615,0.0,0.44953916071181005,0.0
4.200000000000001,-0.0006755213971222585,0.0,500.1940201206104,0.0,0.46035731767221083,0.0
4.300000000000001,-0.0007239867740340727,0.0,500.20122822902243,0.0,0.4707322284432587,0.0
4.4,-0.000775803319445406,0.0,500.20848425636945,0.0,0.48064472923750134,0.0
4.5,-0.000831138377070031,0.0,500.21578527071193,0.0,0.4900766714718661,0.0
4.6,-0.0008901582011043223,0.0,500.22312850283487,0.0,0.4990108878314547,0.0
4.699999999999999,-0.0009530274785607598,0.0,500.2305113393812,0.0,0.5074311579086153,0.0
4.799999999999999,-0.0010199088746251023,0.0,500.23793131599916,0.0,0.5153221737092447,0.0
4.899999999999999,-0.0010909626011624274,0.0,500.245386110548,0.0,0.522669505277118,0.0
4.999999999999998,-0.0011663460082826543,0.0,500.2528735363993,0.0,0.5294595666495057,0.0
5.099999999999998,-0.001246213198695994,0.0,500.2603915358657,0.0,0.5356795823233251,0.0
5.1999999999999975,-0.0013307146644398647,0.0,500.2679381737822,0.0,0.541317554380477,0.0
5.299999999999997,-0.001419996945437967,0.0,500.2755116312616,0.0,0.5463622303936594,0.0
5.399999999999997,-0.0015142023092563838,0.0,500.2831101996393,0.0,0.5508030722096501,0.0
5.4999999999999964,-0.0016134684513477778,0.0,500.2907322746214,0.0,0.5546302256855968,0.0
5.599999999999996,-0.0017179282150202372,0.0,500.2983763506438,0.0,0.5578344914350356,0.0
5.699999999999996,-0.001827709330329476,0.0,500.3060410154494,0.0,0.5604072966239614,0.0
5.799999999999995,-0.0019429341710695599,0.0,500.31372494488676,0.0,0.5623406678430817,0.0
5.899999999999995,-0.0020637195290259184,0.0,500.32142689793113,0.0,0.5636272050701892,0.0
5.999999999999995,-0.0021901764046532075,0.0,500.32914571192833,0.0,0.5642600567261967,0.0
6.099999999999994,-0.0023224098133316643,0.0,500.3368802980586,0.0,0.5642328957979046,0.0
6.199999999999994,-0.0024605185930530737,0.0,500.3446296367629,0.0,0.5635398789092984,0.0
6.299999999999994,-0.0026045952081167603,0.0,500.3523927730041,0.0,0.5621755778379602,0.0
6.399999999999993,-0.0027547255929159403,0.0,500.36016881219916,0.0,0.5601349425730752,0.0
6.499999999999993,-0.0029109890193316453,0.0,500.3679569165673,0.0,0.5574132803382928,0.0
6.5999999999999925,-0.003073457974986361,0.0,500.3757563016745,0.0,0.5540062357586176,0.0
6.699999999999992,-0.0032421980516199205,0.0,500.38356623316537,0.0,0.5499097721299191,0.0
6.799999999999992,-0.0034172678428878037,0.0,500.39138602367666,0.0,0.54512015374827,0.0
6.8999999999999915,-0.003598718850920927,0.0,500.3992150299242,0.0,0.5396339292555336,0.0
6.999999999999991,-0.003786595401024604,0.0,500.40705264995626,0.0,0.5334479159573123,0.0
7.099999999999991,-0.003980934563932312,0.0,500.4148983205655,0.0,0.5265591850694524,0.0
7.19999999999999,-0.004181766085066849,0.0,500.4227515148528,0.0,0.5189650478497148,0.0
7.29999999999999,-0.004389112320297336,0.0,500.4306117399353,0.0,0.5106630425719088,0.0
7.39999999999999,-0.004602988177714972,0.0,500.43847853479093,0.0,0.5016509223006866,0.0
7.499999999999989,-0.004823401064983574,0.0,500.4463514682346,0.0,0.49192664342627834,0.0
7.599999999999989,-0.005050350841852464,0.0,500.4542301370163,0.0,0.48148835491965936,0.0
7.699999999999989,-0.0052838297774492815,0.0,500.462114164037,0.0,0.4703343882699603,0.0
7.799999999999988,-0.00552382251199873,0.0,500.4700031966755,0.0,0.4584632480673223,0.0
7.899999999999988,-0.0057703060226401105,0.0,500.4778969052191,0.0,0.4458736031958388,0.0
7.999999999999988,-0.0060232495930418045,0.0,500.48579498139384,0.0,0.4325642786027024,0.0
8.099999999999987,-0.006282614786534602,0.0,500.4936971369878,0.0,0.4185342476111535,0.0
8.199999999999987,-0.006548355422508093,0.0,500.5016031025622,0.0,0.40378262474631554,0.0
8.299999999999986,-0.006820417555835144,0.0,500.50951262624557,0.0,0.38830865904446843,0.0
8.399999999999986,-0.007098739459108971,0.0,500.51742547260636,0.0,0.3721117278177584,0.0
8.499999999999986,-0.007383251607495456,0.0,500.52534142159845,0.0,0.35519133084776083,0.0
8.599999999999985,-0.007673876666020241,0.0,500.5332602675764,0.0,0.3375470849826887,0.0
8.699999999999985,-0.007970529479125835,0.0,500.5411818183757,0.0,0.3191787191143799,0.0
8.799999999999985,-0.008273117062348529,0.0,500.5491058944541,0.0,0.3000860695124867,0.0
8.899999999999984,-0.008581538595978423,0.0,500.5570323280902,0.0,0.28026907549453745,0.0
8.999999999999984,-0.008895685420578376,0.0,500.56496096263675,0.0,0.25972777541173553,0.0
9.099999999999984,-0.00921544103424926,0.0,500.572891651824,0.0,0.23846230293150514,0.0
9.199999999999983,-0.00954068109153954,0.0,500.5808242591113,0.0,0.2164728835988877,0.0
9.299999999999983,-0.009871273403907177,0.0,500.58875865708274,0.0,0.1937598316599385,0.0
9.399999999999983,-0.010207077941650792,0.0,500.5966947268853,0.0,0.17032354713126288,0.0
9.499999999999982,-0.010547946837235573,0.0,500.6046323577063,0.0,0.14616451310077808,0.0
9.599999999999982,-0.010893724389947035,0.0,500.61257144628735,0.0,0.12128329324568093,0.0
9.699999999999982,-0.011244247071812858,0.0,500.6205118964736,0.0,0.09568052955445104,0.0
9.799999999999981,-0.011599343534739608,0.0,500.6284536187949,0.0,0.06935694024052054,0.0
9.89999999999998,-0.011958834618817119,0.0,500.63639653007766,0.0,0.04231331783600166,0.0
9.99999999999998,-0.0123225333617488,0.0,500.64434055308544,0.0,0.014550527454578807,0.0
10.09999999999998,-0.012690245009371293,0.0,500.65228561618574,0.0,-0.013930494786652502,0.0
10.19999999999998,-0.013061767027231429,0.0,500.66023165304256,0.0,-0.043128743195980715,0.0
10.29999999999998,-0.013436889113192773,0.0,500.66817860233203,0.0,-0.07304314379548926,0.0
10.399999999999979,-0.013815393211047909,0.0,500.67612640748024,0.0,-0.10367255547750164,0.0
10.499999999999979,-0.014197053525116207,0.0,500.68407501642156,0.0,-0.1350157710369488,0.0
10.599999999999978,-0.014581636535810055,0.0,500.6920243813764,0.0,-0.16707151808704984,0.0
10.699999999999978,-0.014968901016155561,0.0,500.6999744586475,0.0,-0.1998384598652291,0.0
10.799999999999978,-0.015358598049256421,0.0,500.70792520843213,0.0,-0.23331519593575561,0.0
10.899999999999977,-0.015750471046692173,0.0,500.7158765946516,0.0,-0.26750026279517897,0.0
10.999999999999977,-0.01614425576784431,0.0,500.7238285847947,0.0,-0.3023921343862519,0.0
11.099999999999977,-0.01653968034014579,0.0,500.7317811497753,0.0,-0.33798922252566854,0.0
11.199999999999976,-0.01693646528025144,0.0,500.73973426380326,0.0,-0.3742898772506108,0.0
11.299999999999976,-0.0173343235161283,0.0,500.7476879042675,0.0,-0.41129238708877897,0.0
11.399999999999975,-0.017732960410066705,0.0,500.7556420516304,0.0,-0.44899497925628845,0.0
11.499999999999975,-0.018132073782614225,0.0,500.76359668933327,0.0,-0.48739581978753904,0.0
11.599999999999975,-0.018531353937435775,0.0,500.77155180371165,0.0,-0.5264930136009045,0.0
11.699999999999974,-0.018930483687104555,0.0,500.7795073839201,0.0,-0.5662846045038517,0.0
11.799999999999974,-0.019329138379829337,0.0,500.78746342186577,0.0,-0.6067685751408728,0.0
11.899999999999974,-0.01972698592712467,0.0,500.79541991215063,0.0,-0.6479428468874068,0.0
11.999999999999973,-0.020123686832431334,0.0,500.8033768520206,0.0,-0.6898052796927299,0.0
12.099999999999973,-0.02051889422069515,0.0,500.81133424132315,0.0,-0.7323536718746145,0.0
12.199999999999973,-0.020912253868912958,0.0,500.81929208247027,0.0,-0.775585759868388,0.0
12.299999999999972,-0.021303404237655043,0.0,500.8272503804093,0.0,-0.819499217932863,0.0
12.399999999999972,-0.021691976503573906,0.0,500.8352091425983,0.0,-0.8640916578154688,0.0
12.499999999999972,-0.022077594592909665,0.0,500.84316837898785,0.0,-0.9093606283787753,0.0
12.599999999999971,-0.022459875216002758,0.0,500.8511281020078,0.0,-0.9553036151904749,0.0
12.69999999999997,-0.022838427902824938,0.0,500.859088326559,0.0,-1.0019180400787746,0.0
12.79999999999997,-0.023212855039539796,0.0,500.86704907000905,0.0,-1.049201260655038,0.0
12.89999999999997,-0.023582751906104253,0.0,500.8750103521929,0.0,-1.0971505698054216,0.0
12.99999999999997,-0.02394770671492266,0.0,500.8829721954172,0.0,-1.145763195153153,0.0
13.09999999999997,-0.024307300650565154,0.0,500.890934624468,0.0,-1.1950362984930185,0.0
13.199999999999969,-0.024661107910562148,0.0,500.8988976666223,0.0,-1.2449669751995438,0.0
13.299999999999969,-0.02500869574728659,0.0,500.9068613516626,0.0,-1.295552253610284,0.0
13.399999999999968,-0.025349624510935906,0.0,500.9148257118942,0.0,-1.3467890943855694,0.0
13.499999999999968,-0.025683447693625204,0.0,500.9227907821657,0.0,-1.3986743898459968,0.0
13.599999999999968,-0.02600971197460343,0.0,500.9307565998915,0.0,-1.451204963288893,0.0
13.699999999999967,-0.026327957266603853,0.0,500.938723205077,0.0,-1.5043775682849376,0.0
13.799999999999967,-0.02663771676334017,0.0,500.9466906403459,0.0,-1.5581888879560748,0.0
13.899999999999967,-0.026938516988159328,0.0,500.9546589509695,0.0,-1.6126355342358103,0.0
13.999999999999966,-0.027229877843861824,0.0,500.96262818489726,0.0,-1.6677140471129486,0.0
14.099999999999966,-0.027511312663699997,0.0,500.97059839279024,0.0,-1.7234208938597895,0.0
14.199999999999966,-0.02778232826356463,0.0,500.97856962805463,0.0,-1.7797524682457804,0.0
14.299999999999965,-0.02804242499536955,0.0,500.9865419468777,0.0,-1.8367050897375818,0.0
14.399999999999965,-0.028291096801643868,0.0,500.9945154082645,0.0,-1.894275002686494,0.0
14.499999999999964,-0.02852783127134082,0.0,501.0024900740755,0.0,-1.9524583755041591,0.0
14.599999999999964,-0.02875210969687189,0.0,501.01046600906596,0.0,-2.0112512998274443,0.0
14.699999999999964,-0.0289634071323743,0.0,501.018443280925,0.0,-2.0706497896733915,0.0
14.799999999999963,-0.029161192453219572,0.0,501.02642196031655,0.0,-2.1306497805851077,0.0
14.899999999999963,-0.02934492841677021,0.0,501.03440212091994,0.0,-2.19124712876946,0.0
14.999999999999963,-0.029514071724391036,0.0,501.04238383947165,0.0,-2.2524376102274335,0.0
15.099999999999962,-0.029668073084721143,0.0,501.05036719580744,0.0,-2.3142169198779974,0.0
15.199999999999962,-0.02980637727821171,0.0,501.0583522729041,0.0,-2.376580670676327,0.0
15.299999999999962,-0.029928423222934385,0.0,501.0663391569222,0.0,-2.439524392727232,0.0
15.399999999999961,-0.03003364404166411,0.0,501.0743279372486,0.0,-2.50304353239462,0.0
15.499999999999961,-0.03012146713023968,0.0,501.08231870653896,0.0,-2.567133451407853,0.0
15.59999999999996,-0.030191314227204467,0.0,501.0903115607602,0.0,-2.631789425965845,0.0
15.69999999999996,-0.030242601484729063,0.0,501.0983065992327,0.0,-2.697006645839738,0.0
15.79999999999996,-0.030274739540816657,0.0,501.10630392467255,0.0,-2.762780213475035,0.0
15.89999999999996,-0.03028713359279126,0.0,501.1143036432331,0.0,-2.8291051430940377,0.0
15.99999999999996,-0.030279183472067945,0.0,501.1223058645461,0.0,-2.895976359799475,0.0
16.09999999999996,-0.030250283720203375,0.0,501.13031070176294,0.0,-2.9633886986801974,0.0
16.19999999999996,-0.030199823666223997,0.0,501.13831827159424,0.0,-3.031336903919838,0.0
16.29999999999996,-0.03012718750522831,0.0,501.14632869434985,0.0,-3.0998156279093396,0.0
16.399999999999963,-0.030031754378258634,0.0,501.15434209397733,0.0,-3.1688194303642714,0.0
16.499999999999964,-0.029912898453436806,0.0,501.16235859810024,0.0,-3.2383427774478646,0.0
16.599999999999966,-0.02976998900835721,0.0,501.17037833805466,0.0,-3.308380040900717,0.0
16.699999999999967,-0.02960239051372942,0.0,501.17840144892597,0.0,-3.3789254971781273,0.0
16.79999999999997,-0.029409462718261732,0.0,501.18642806958354,0.0,-3.4499733265960297,0.0
16.89999999999997,-0.02919056073477573,0.0,501.19445834271477,0.0,-3.5215176124865435,0.0
16.99999999999997,-0.028945035127540812,0.0,501.20249241485783,0.0,-3.593552340364125,0.0
17.099999999999973,-0.028672232000816585,0.0,501.2105304364333,0.0,-3.6660713971033743,0.0
17.199999999999974,-0.02837149308858971,0.0,501.2185725617746,0.0,-3.7390685701295285,0.0
17.299999999999976,-0.028042155845490673,0.0,501.22661894915615,0.0,-3.8125375466227216,0.0
17.399999999999977,-0.027683553538874684,0.0,501.23466976082165,0.0,-3.8864719127370906,0.0
17.49999999999998,-0.027295015342049665,0.0,501.24272516300914,0.0,-3.96086515283584,0.0
17.59999999999998,-0.026875866428633044,0.0,501.2507853259758,0.0,-4.035710648743383,0.0
17.69999999999998,-0.026425428068017724,0.0,501.25885042402047,0.0,-4.111001679015717,0.0
17.799999999999983,-0.025943017721926417,0.0,501.26692063550433,0.0,-4.1867314182301945,0.0
17.899999999999984,-0.025427949142032037,0.0,501.2749961428702,0.0,-4.262892936295873,0.0
17.999999999999986,-0.024879532468620687,0.0,501.2830771326598,0.0,-4.3394791977856695,0.0
18.099999999999987,-0.024297074330272374,0.0,501.2911637955292,0.0,-4.416483061291524,0.0
18.19999999999999,-0.02367987794453312,0.0,501.29925632626197,0.0,-4.493897278803843,0.0
18.29999999999999,-0.02302724321955098,0.0,501.30735492378096,0.0,-4.571714495116482,0.0
18.39999999999999,-0.02233846685664693,0.0,501.31545979115697,0.0,-4.6499272472585655,0.0
18.499999999999993,-0.021612842453790266,0.0,501.3235711356166,0.0,-4.728527963954445,0.0
18.599999999999994,-0.020849660609946863,0.0,501.33168916854663,0.0,-4.807508965113132,0.0
18.699999999999996,-0.020048209030267057,0.0,501.3398141054969,0.0,-4.886862461348562,0.0
18.799999999999997,-0.019207772632078776,0.0,501.34794616618046,0.0,-4.966580553532047,0.0
18.9,-0.01832763365164991,0.0,501.356085574472,0.0,-5.0466552323783125,0.0
19.0,-0.017407071751682806,0.0,501.36423255840276,0.0,-5.127078378066522,0.0
19.1,-0.01644536412950212,0.0,501.372387350154,0.0,-5.207841759897711,0.0
19.200000000000003,-0.015441785625896142,0.0,501.38055018604723,0.0,-5.288937035990084,0.0
19.300000000000004,-0.014395608834570186,0.0,501.38872130653243,0.0,-5.370355753013603,0.0
19.400000000000006,-0.01330610421216944,0.0,501.39690095617317,0.0,-5.452089345965373,0.0
19.500000000000007,-0.01217254018882721,0.0,501.40508938362905,0.0,-5.534129137987286,0.0
19.60000000000001,-0.01099418327919336,0.0,501.41328684163597,0.0,-5.616466340227433,0.0
19.70000000000001,-0.009770298193896305,0.0,501.4214935869827,0.0,-5.699092051746794,0.0
19.80000000000001,-0.0085001479513908,0.0,501.42970988048575,0.0,-5.781997259472728,0.0
19.900000000000013,-0.007182993990142499,0.0,501.43793598696027,0.0,-5.8651728382008015,0.0
20.000000000000014,-0.005818096281099024,0.0,501.44617217518874,0.0,-5.948609550646483,0.0
20.100000000000016,-0.004404713440396229,0.0,501.4544187178867,0.0,-6.032298047548274,0.0
20.200000000000017,-0.0029421028422471312,0.0,501.46267589166524,0.0,-6.116228867823806,0.0
20.30000000000002,-0.0014295207319599788,0.0,501.4709439769903,0.0,-6.200392438780491,0.0
20.40000000000002,0.00013377766096915153,0.0,501.47922325814,0.0,-6.284779076382255,0.0
20.50000000000002,0.0017485380097447829,0.0,501.487514023157,0.0,-6.369378985573945,0.0
20.600000000000023,0.003415506777198001,0.0,501.49581656379996,0.0,-6.454182260664961,0.0
20.700000000000024,0.005135431102807325,0.0,501.50413117548993,0.0,-6.53917888577366,0.0
20.800000000000026,0.00690905868987268,0.0,501.5124581572552,0.0,-6.624358735334112,0.0
20.900000000000027,0.008737137692901421,0.0,501.5207978116715,0.0,-6.709711574666727,0.0
21.00000000000003,0.010620416605266044,0.0,501.5291504448003,0.0,-6.795227060614322,0.0
21.10000000000003,0.012559644147193875,0.0,501.53751636612293,0.0,-6.880894742245117,0.0
21.20000000000003,0.01455556915414951,0.0,501.54589588847233,0.0,-6.966704061624221,0.0
21.300000000000033,0.016608940465671337,0.0,501.55428932796076,0.0,-7.052644354655061,0.0
21.400000000000034,0.01872050681472384,0.0,501.56269700390465,0.0,-7.1387048519922605,0.0
21.500000000000036,0.020891016717627626,0.0,501.57111923874646,0.0,-7.224874680027425,0.0
21.600000000000037,0.023121218364629537,0.0,501.57955635797293,0.0,-7.311142861949255,0.0
21.70000000000004,0.025411859511175094,0.0,501.58800869003005,0.0,-7.397498318879408,0.0
21.80000000000004,0.02776368736994583,0.0,501.596476566235,0.0,-7.483929871085479,0.0
21.90000000000004,0.030177448503723846,0.0,501.60496032068505,0.0,-7.570426239272465,0.0
22.000000000000043,0.03265388871914586,0.0,501.6134602901626,0.0,-7.656976045953999,0.0
22.100000000000044,0.03519375296140879,0.0,501.62197681403745,0.0,-7.743567816904646,0.0
